11:20	18/01/2019
Fry Edward, Lam Yik Yau
6
Time / sec	Conductance / µS
0.000	17.000
0.999	19.000
2.000	21.000
3.000	21.000
4.000	23.000
5.000	24.000
6.001	26.000
7.001	30.000
8.001	34.000
9.002	35.000
10.001	38.000
11.001	41.000
12.001	44.000
13.001	48.000
14.001	52.000
15.002	55.000
16.003	58.000
17.002	61.000
18.003	65.000
19.002	69.000
20.003	74.000
21.002	79.000
22.003	84.000
23.002	89.000
24.002	94.000
25.003	100.000
26.004	105.000
27.004	111.000
28.004	116.000
29.003	122.000
30.003	129.000
31.003	136.000
32.004	142.000
33.005	149.000
34.006	156.000
35.007	163.000
36.006	170.000
37.006	178.000
38.006	186.000
39.007	194.000
40.008	202.000
41.009	210.000
42.009	218.000
43.009	227.000
44.008	236.000
45.008	245.000
46.009	254.000
47.009	263.000
48.008	272.000
49.009	281.000
50.008	291.000
51.008	300.000
52.009	310.000
53.009	320.000
54.008	330.000
55.010	340.000
56.009	351.000
57.009	361.000
58.010	372.000
59.010	382.000
60.010	393.000
61.010	404.000
62.010	415.000
63.010	426.000
64.010	437.000
65.010	448.000
66.010	460.000
67.010	472.000
68.011	483.000
69.011	494.000
70.010	506.000
71.010	517.000
72.010	529.000
73.010	540.000
74.012	552.000
75.011	563.000
76.012	575.000
77.013	586.000
78.013	599.000
79.012	611.000
80.013	623.000
81.014	634.000
82.014	646.000
83.015	659.000
84.015	671.000
85.015	683.000
86.016	695.000
87.015	707.000
88.016	721.000
89.015	733.000
90.016	745.000
91.016	757.000
92.016	768.000
93.017	780.000
94.017	792.000
95.018	804.000
96.017	816.000
97.017	828.000
98.017	840.000
99.017	852.000
100.018	864.000
101.017	874.000
102.017	886.000
103.017	897.000
104.017	909.000
105.017	921.000
106.018	933.000
107.018	944.000
108.019	954.000
109.019	967.000
110.020	979.000
111.019	991.000
112.020	1003.000
113.021	1014.000
114.021	1025.000
115.021	1036.000
116.021	1047.000
117.020	1058.000
118.020	1070.000
119.020	1081.000
120.020	1091.000
121.022	1103.000
122.021	1114.000
123.021	1124.000
124.022	1137.000
125.021	1148.000
126.021	1158.000
127.021	1170.000
128.022	1181.000
129.023	1191.000
130.022	1202.000
131.023	1213.000
132.024	1225.000
133.024	1235.000
134.025	1246.000
135.025	1256.000
136.025	1268.000
137.025	1278.000
138.026	1290.000
139.026	1302.000
140.026	1311.000
141.025	1322.000
142.026	1333.000
143.027	1343.000
144.026	1353.000
145.027	1364.000
146.026	1374.000
147.027	1386.000
148.026	1394.000
149.026	1404.000
150.027	1415.000
151.027	1425.000
152.026	1434.000
153.026	1445.000
154.026	1456.000
155.026	1465.000
156.027	1475.000
157.027	1485.000
158.027	1495.000
159.028	1505.000
160.027	1515.000
161.027	1524.000
162.028	1534.000
163.029	1543.000
164.029	1553.000
165.028	1563.000
166.029	1571.000
167.029	1580.000
168.029	1589.000
169.030	1600.000
170.030	1609.000
171.030	1619.000
172.031	1627.000
173.030	1637.000
174.031	1647.000
175.030	1656.000
176.030	1666.000
177.030	1674.000
178.030	1683.000
179.030	1692.000
180.030	1700.000
181.030	1709.000
182.030	1718.000
183.030	1728.000
184.030	1736.000
185.031	1744.000
186.031	1753.000
187.031	1761.000
188.032	1769.000
189.032	1778.000
190.033	1786.000
191.034	1793.000
192.033	1803.000
193.033	1811.000
194.033	1817.000
195.034	1826.000
196.035	1835.000
197.035	1842.000
198.034	1851.000
199.034	1859.000
200.034	1866.000
201.035	1874.000
202.035	1881.000
203.036	1889.000
204.037	1897.000
205.037	1904.000
206.037	1911.000
207.037	1920.000
208.038	1927.000
209.038	1934.000
210.037	1941.000
211.037	1949.000
212.037	1956.000
213.038	1963.000
214.037	1970.000
215.038	1977.000
216.037	1984.000
217.038	1991.000
218.038	1998.000
219.039	2005.000
220.038	2012.000
221.038	2019.000
222.038	2026.000
223.039	2032.000
224.039	2040.000
225.039	2046.000
226.038	2053.000
227.038	2059.000
228.038	2066.000
229.039	2072.000
230.039	2078.000
231.039	2084.000
232.039	2091.000
233.039	2097.000
234.039	2103.000
235.040	2110.000
236.040	2116.000
237.040	2122.000
238.041	2128.000
239.040	2134.000
240.040	2140.000
241.040	2146.000
242.040	2151.000
243.040	2157.000
244.041	2163.000
245.041	2168.000
246.042	2174.000
247.042	2180.000
248.044	2185.000
249.043	2191.000
250.044	2196.000
251.043	2203.000
252.043	2208.000
253.043	2213.000
254.043	2218.000
255.044	2223.000
256.044	2229.000
257.043	2234.000
258.043	2239.000
259.043	2244.000
260.044	2249.000
261.044	2255.000
262.045	2260.000
263.045	2264.000
264.046	2269.000
265.047	2273.000
266.047	2279.000
267.047	2284.000
268.047	2288.000
269.046	2292.000
270.047	2296.000
271.046	2302.000
272.046	2306.000
273.047	2310.000
274.047	2315.000
275.048	2320.000
276.049	2325.000
277.048	2330.000
278.049	2335.000
279.049	2338.000
280.049	2342.000
281.049	2346.000
282.050	2350.000
283.049	2355.000
284.050	2359.000
285.049	2363.000
286.050	2367.000
287.049	2371.000
288.049	2375.000
289.049	2379.000
290.049	2383.000
291.049	2387.000
292.049	2391.000
293.050	2394.000
294.049	2398.000
295.049	2401.000
296.049	2405.000
297.050	2409.000
298.050	2413.000
299.052	2417.000
300.052	2420.000
301.052	2424.000
302.053	2427.000
303.052	2431.000
304.052	2435.000
305.052	2439.000
306.052	2442.000
307.053	2446.000
308.052	2449.000
309.052	2452.000
310.053	2455.000
311.053	2458.000
312.054	2461.000
313.054	2464.000
314.055	2467.000
315.054	2470.000
316.055	2474.000
317.055	2477.000
318.055	2479.000
319.055	2482.000
320.056	2485.000
321.056	2488.000
322.056	2490.000
323.055	2494.000
324.056	2497.000
325.056	2499.000
326.056	2502.000
327.056	2504.000
328.056	2507.000
329.056	2510.000
330.056	2512.000
331.057	2514.000
332.058	2517.000
333.059	2520.000
334.058	2522.000
335.059	2525.000
336.059	2527.000
337.059	2529.000
338.059	2532.000
339.061	2534.000
340.060	2537.000
341.062	2539.000
342.062	2542.000
343.062	2544.000
344.061	2547.000
345.061	2549.000
346.061	2551.000
347.062	2554.000
348.062	2555.000
349.062	2557.000
350.062	2559.000
351.062	2561.000
352.062	2563.000
353.062	2565.000
354.063	2567.000
355.063	2569.000
356.062	2570.000
357.062	2572.000
358.063	2574.000
359.064	2576.000
360.064	2578.000
361.064	2580.000
362.064	2582.000
363.065	2583.000
364.066	2586.000
365.066	2587.000
366.067	2589.000
367.068	2590.000
368.069	2592.000
369.069	2594.000
370.069	2595.000
371.069	2596.000
372.070	2598.000
373.071	2600.000
374.071	2601.000
375.070	2602.000
376.071	2605.000
377.071	2606.000
378.072	2608.000
379.072	2609.000
380.072	2611.000
381.073	2612.000
382.073	2614.000
383.074	2615.000
384.075	2617.000
385.075	2617.000
386.075	2619.000
387.076	2620.000
388.077	2621.000
389.077	2623.000
390.077	2624.000
391.077	2625.000
392.077	2626.000
393.077	2628.000
394.077	2628.000
395.077	2630.000
396.078	2631.000
397.077	2632.000
398.078	2634.000
399.077	2635.000
400.077	2637.000
401.077	2638.000
402.077	2639.000
403.079	2640.000
404.080	2642.000
405.079	2643.000
406.079	2643.000
407.079	2645.000
408.080	2647.000
409.079	2647.000
410.081	2648.000
411.081	2649.000
412.082	2650.000
413.083	2651.000
414.083	2652.000
415.083	2653.000
416.084	2654.000
417.083	2654.000
418.084	2656.000
419.084	2657.000
420.083	2658.000
421.084	2659.000
422.083	2659.000
423.083	2660.000
424.084	2661.000
425.083	2662.000
426.084	2663.000
427.084	2664.000
428.085	2665.000
429.084	2666.000
430.085	2667.000
431.086	2667.000
432.085	2669.000
433.085	2670.000
434.086	2671.000
435.087	2671.000
436.087	2672.000
437.087	2673.000
438.087	2674.000
439.087	2675.000
440.087	2676.000
441.087	2677.000
442.089	2678.000
443.088	2678.000
444.089	2679.000
445.089	2679.000
446.089	2680.000
447.090	2681.000
448.089	2682.000
449.090	2682.000
450.090	2683.000
451.089	2684.000
452.089	2684.000
453.090	2685.000
454.091	2685.000
455.091	2686.000
456.092	2687.000
457.092	2688.000
458.091	2688.000
459.093	2688.000
460.094	2689.000
461.094	2690.000
462.095	2690.000
463.095	2691.000
464.095	2692.000
465.095	2693.000
466.096	2694.000
467.096	2693.000
468.096	2694.000
469.097	2695.000
470.097	2696.000
471.098	2697.000
472.099	2697.000
473.100	2699.000
474.099	2699.000
475.100	2699.000
476.099	2699.000
477.101	2699.000
478.100	2699.000
479.100	2700.000
480.102	2701.000
481.102	2702.000
482.103	2702.000
483.102	2703.000
484.102	2704.000
485.102	2704.000
486.102	2705.000
487.102	2706.000
488.102	2706.000
489.103	2706.000
490.103	2707.000
491.103	2706.000
492.103	2707.000
493.103	2708.000
494.104	2708.000
495.103	2708.000
496.104	2709.000
497.103	2709.000
498.104	2710.000
499.104	2710.000
500.105	2710.000
501.105	2711.000
502.105	2711.000
503.105	2712.000
504.106	2712.000
505.106	2713.000
506.106	2713.000
507.106	2713.000
508.107	2714.000
509.106	2713.000
510.106	2714.000
511.107	2714.000
512.106	2715.000
513.106	2715.000
514.107	2715.000
515.108	2716.000
516.108	2716.000
517.107	2716.000
518.108	2717.000
519.108	2717.000
520.109	2718.000
521.108	2718.000
522.108	2718.000
523.108	2719.000
524.109	2720.000
525.108	2720.000
526.108	2720.000
527.108	2720.000
528.108	2720.000
529.108	2721.000
530.108	2721.000
531.109	2722.000
532.109	2722.000
533.109	2722.000
534.110	2722.000
535.111	2722.000
536.110	2723.000
537.110	2724.000
538.111	2724.000
539.110	2724.000
540.111	2724.000
541.111	2724.000
542.111	2725.000
543.112	2725.000
544.113	2725.000
545.113	2725.000
546.114	2726.000
547.114	2726.000
548.114	2726.000
549.115	2726.000
550.116	2726.000
551.116	2727.000
552.115	2727.000
553.115	2728.000
554.116	2728.000
555.115	2728.000
556.115	2728.000
557.115	2728.000
558.117	2729.000
559.117	2729.000
560.117	2730.000
561.116	2730.000
562.116	2730.000
563.116	2731.000
564.116	2731.000
565.116	2731.000
566.116	2731.000
567.116	2731.000
568.117	2731.000
569.117	2731.000
570.116	2731.000
571.118	2732.000
572.117	2732.000
573.118	2733.000
574.118	2733.000
575.118	2733.000
576.118	2734.000
577.119	2734.000
578.120	2734.000
579.119	2734.000
580.119	2734.000
581.121	2734.000
582.122	2958.000
583.121	2958.000
584.122	2734.000
585.122	2736.000
586.122	2735.000
587.122	2736.000
588.122	2736.000
589.123	2736.000
590.124	2959.000
591.124	2960.000
592.124	2960.000
593.123	2960.000
594.123	2737.000
595.124	2961.000
596.124	2738.000
597.124	2960.000
598.125	2738.000
599.126	2961.000
600.125	2739.000
601.126	2739.000
602.126	2961.000
603.127	2961.000
604.127	2961.000
605.126	2961.000
606.127	2739.000
607.128	2740.000
608.128	2739.000
609.128	2962.000
610.129	2962.000
611.129	2740.000
612.129	2963.000
613.130	2962.000
614.130	2741.000
615.129	2963.000
616.130	2963.000
617.129	2963.000
618.129	2963.000
619.129	2963.000
620.130	2963.000
621.130	2741.000
622.130	2964.000
623.130	2964.000
624.130	2965.000
625.131	2744.000
626.130	2966.000
627.130	2965.000
628.130	2966.000
629.130	2967.000
630.130	2967.000
631.131	2967.000
632.130	2968.000
633.131	2968.000
634.131	2968.000
635.132	2968.000
636.131	2968.000
637.132	2969.000
638.133	2969.000
639.132	2969.000
640.133	2969.000
641.132	2970.000
642.133	2970.000
643.132	2970.000
644.133	2970.000
645.134	2971.000
646.133	2969.000
647.133	2970.000
648.133	2970.000
649.133	2971.000
650.134	2971.000
